-0.0257812 -0.0257812 -0.0257812 -0.0225586 -0.0128906 -0.00322266 0 0.00322266 0.00966797 0.0193359 0.00966797 0.00966797 0.00966797 0 0 -0.00322266 -0.0128906 -0.0225586 -0.0257812 -0.0257812 -0.0257812 -0.0322266 -0.0257812 -0.0257812 -0.0128906 -0.00322266 -0.00322266 -0.00322266 0.00322266 0.00966797 0.00966797 0.0225586 0.0225586 0 -0.0128906 -0.0257812 -0.0257812 -0.0257812 -0.0322266 -0.0257812 -0.0257812 -0.0257812 -0.0257812 -0.0128906 -0.00322266 0.00322266 0.00966797 0.0193359 0.00966797 0.0128906 0.00966797 0.0225586 0.0193359 0.00322266 -0.00322266 -0.0128906 -0.0257812 -0.0257812 -0.0257812 -0.0257812 -0.0257812 -0.0418945 -0.0322266 -0.0257812 -0.0225586 -0.0128906 -0.00322266 0 0.00322266 0.00966797 0.00966797 0.00966797 0.00966797 0 -0.00644531 -0.00644531 -0.0128906 -0.0128906 -0.0128906 -0.0128906 -0.0257812 -0.0257812 -0.0257812 -0.0128906 -0.0128906 -0.00322266 0.00322266 0.00322266 0.00966797 0.00966797 0.00322266 0.00966797 0.00322266 0 0 0 -0.00644531 -0.0225586 -0.0257812 -0.0257812 -0.0257812 -0.0257812 -0.0257812 -0.0128906 -0.00322266 0 0.00322266 0.00966797 0.00966797 0.0193359 0.0193359 0.0225586 0.00966797 0 -0.00322266 -0.00644531 -0.0128906 -0.0257812 -0.0257812 -0.0257812 -0.0257812 -0.0257812 -0.0257812 -0.0257812 -0.0128906 -0.00322266 -0.00322266 0.00322266 0.00966797 0.00322266 0.00966797 0.00966797 0.00966797 0.00322266 -0.00322266 -0.0128906 -0.0257812 -0.0257812 -0.0257812 -0.0257812 -0.0257812 -0.0257812 -0.0257812 -0.0128906 -0.00644531 -0.00322266 0 0.00322266 0.00966797 0.00966797 0.00966797 0.0225586 0.00966797 0.00322266 0 -0.0128906 -0.0128906 -0.0225586 -0.0257812 -0.0257812 -0.0257812 -0.0257812 -0.0257812 -0.0257812 -0.0128906 -0.00322266 0 0.00322266 0.00966797 0.00966797 0.00966797 0.0225586 0.00966797 0 -0.00322266 -0.0128906 -0.0225586 -0.0257812 -0.0257812 -0.0257812 -0.0257812 -0.0257812 -0.0257812 -0.0257812 -0.0257812 -0.0128906 -0.00644531 0 0.00322266 0.00966797 0.00966797 0.00966797 0 -0.00644531 -0.0225586 -0.0257812 -0.0257812 -0.0257812 -0.0257812 -0.0386719 -0.0418945 -0.0418945 -0.0257812 -0.0257812 -0.0257812 -0.00644531 -0.00322266 -0.00322266 -0.00322266 0 0.00322266 0.00322266 0 -0.00644531 -0.0128906 -0.0257812 -0.0257812 -0.0418945 -0.0418945 -0.0257812 -0.0257812 -0.0257812 -0.0257812 -0.0225586 -0.0128906 -0.00644531 -0.00644531 -0.00644531 -0.00322266 0 0.00322266 0 -0.00322266 -0.0128906 -0.0257812 -0.0257812 -0.0418945 -0.0418945 -0.0418945 -0.0418945 -0.0418945 -0.0483398 -0.0418945 -0.0257812 -0.0128906 -0.00644531 -0.00644531 -0.00322266 0 0 0.00322266 0.00966797 0 -0.00644531 -0.0128906 -0.0128906 -0.0257812 -0.0257812 -0.0257812 -0.0257812 -0.0257812 -0.0257812 -0.0257812 -0.0257812 -0.0257812 -0.0128906 -0.00322266 -0.00644531 -0.00644531 -0.00322266 0 0.00322266 0 -0.00322266 -0.00644531 -0.0128906 -0.0257812 -0.0257812 -0.0257812 -0.0257812 -0.0322266 -0.0418945 -0.0257812 -0.0128906 -0.00644531 -0.00322266 0 0.00322266 0.0193359 0.0193359 0.00966797 0.0193359 0.00322266 -0.00644531 -0.0128906 -0.0257812 -0.0257812 -0.0257812 -0.0418945 -0.0418945 -0.0322266 -0.0418945 -0.0257812 -0.0128906 -0.00322266 -0.00322266 -0.00322266 0 0.00322266 0.00966797 0.00966797 0.00966797 0.00966797 -0.00322266 -0.0128906 -0.0128906 -0.0128906 -0.0257812 -0.0257812 -0.0257812 -0.0257812 -0.0257812 -0.0257812 -0.0257812 -0.00644531 -0.00322266 0 0.00322266 0.00966797 0.00966797 0.00966797 0.00966797 0 -0.00322266 -0.0128906 -0.0128906 -0.0225586 -0.0257812 -0.0257812 -0.0257812 -0.0257812 -0.0257812 -0.0257812 -0.0257812 -0.0257812 -0.0257812 -0.0128906 0 0 0 0.00322266 0.00322266 0 -0.00322266 -0.00644531 -0.0225586 -0.0257812 -0.0322266 -0.0257812 -0.0257812 -0.0257812 -0.0257812 -0.0257812 -0.0225586 -0.0225586 -0.0128906 -0.00644531 -0.00322266 0 0.00966797 0.0225586 0.00966797 0.00966797 0 -0.00322266 -0.0225586 -0.0257812 -0.0257812 -0.0257812 -0.0418945 -0.0418945 -0.0418945 -0.0418945 -0.0257812 -0.0128906 -0.00644531 0 0 0 0 0.00322266 0.00966797 0 -0.00322266 -0.0128906 -0.0257812 -0.0257812 -0.0257812 -0.0257812 -0.0257812 -0.0418945 -0.0515625 -0.0418945 -0.0257812 -0.0128906 -0.00322266 -0.00322266 0 0.00322266 0.00322266 0 0.00966797 0.00322266 -0.00322266 -0.0128906 -0.0128906 -0.0225586 -0.0257812 -0.0257812 -0.0257812 -0.0257812 -0.0322266 -0.0257812 -0.0257812 -0.0128906 -0.00322266 0 0.00322266 0 0 0.00322266 0.00322266 -0.00322266 -0.0128906 0 -0.00322266 -0.0128906 -0.0257812 -0.0257812 -0.0257812 -0.0418945 -0.0418945 -0.0257812 -0.0128906 -0.00644531 -0.00322266 -0.00322266 -0.00322266 0 0.00322266 0 0 0 -0.00644531 -0.0128906 -0.0128906 -0.0225586 -0.0257812 -0.0322266 -0.0257812 -0.0257812 -0.0257812 -0.0257812 -0.0128906 -0.00644531 0 0 -0.00322266 0 0 0.00322266 0.00966797 0.00322266 0 -0.00322266 -0.0225586 -0.0257812 -0.0257812 -0.0418945 -0.0418945 -0.0418945 -0.0483398 -0.0483398 -0.0257812 -0.0128906 -0.0128906 -0.00322266 0 0.00966797 0.00966797 0.00966797 0.00966797 0.00322266 -0.00322266 -0.0128906 -0.0257812 -0.0257812 -0.0257812 -0.0322266 -0.0418945 -0.0418945 -0.0418945 -0.0386719 -0.0257812 -0.0128906 -0.00644531 0 0 0.00322266 0.00966797 0.00966797 0.00966797 0.00966797 0 -0.00644531 -0.0128906 -0.0225586 -0.0257812 -0.0257812 -0.0257812 -0.0257812 -0.0257812 -0.0257812 -0.0257812 -0.0225586 -0.00644531 -0.00644531 -0.00322266 0 0.00322266 0.00966797 0.00966797 0.00966797 0 -0.00644531 -0.0128906 -0.0257812 -0.0257812 -0.0257812 -0.0257812 -0.0257812 -0.0257812 -0.0225586 -0.0128906 -0.00322266 -0.00322266 0 0 0 0.00322266 0.00966797 0.00966797 0.00966797 0.00322266 -0.00644531 -0.0128906 -0.0257812 -0.0257812 -0.0257812 -0.0257812 -0.0257812 -0.0257812 -0.0257812 -0.0257812 -0.00644531 0.00322266 0.00322266 0.00322266 0.00966797 0.00322266 0.00966797 0.00966797 0.00322266 0 -0.0128906 -0.0257812 -0.0257812 -0.0257812 -0.0257812 -0.0418945 -0.0322266 -0.0418945 -0.0257812 -0.0128906 -0.00322266 0 0.00322266 0.00966797 0.0225586 0.00966797 0.00966797 0.0193359 0.00322266 0 -0.00322266 -0.0128906 -0.0257812 -0.0257812 -0.0257812 -0.0418945 -0.0322266 -0.0418945 -0.0257812 -0.0128906 -0.00644531 0 0.00966797 0.00966797 0.00966797 0.00966797 0.0193359 0.0193359 0.00966797 0 -0.0128906 -0.0257812 -0.0257812 -0.0257812 -0.0418945 -0.0257812 -0.0257812 -0.0257812 -0.0225586 -0.0128906 -0.00322266 0 0 0.00966797 0.00966797 0.00966797 0.00966797 0.00966797 0.00322266 0 -0.00644531 -0.0128906 -0.0225586 -0.0257812 -0.0257812 -0.0257812 -0.0128906 -0.0225586 -0.0225586 -0.00644531 -0.00644531 -0.00322266 0.00322266 0.00966797 0.00966797 0.0193359 0.0225586 0.0225586 0.0225586 0.00322266 -0.00322266 -0.00322266 -0.0128906 -0.0257812 -0.0257812 -0.0257812 -0.0257812 -0.0257812 -0.0257812 -0.0225586 -0.00644531 -0.00322266 0 0 0.00966797 0.00966797 0.0225586 0.0225586 0.00966797 -0.00322266 -0.0128906 -0.0128906 -0.0257812 -0.0386719 -0.0322266 -0.0257812 -0.0257812 -0.0257812 -0.0225586 -0.0128906 -0.00644531 0 0.00322266 0.00966797 0.00966797 0.0193359 0.0193359 0.0193359 0.00966797 0 -0.00322266 -0.0128906 -0.0225586 -0.0257812 -0.0257812 -0.0257812 -0.0257812 -0.0257812 -0.0257812 -0.0128906 -0.00322266 -0.00322266 0.00322266 0.00966797 0.00966797 0.00966797 0.0225586 0.0225586 0.0193359 0.00966797 -0.00322266 -0.0128906 -0.0225586 -0.0257812 -0.0257812 -0.0257812 -0.0257812 -0.0257812 -0.0257812 -0.0128906 -0.0128906 -0.00322266 0 -0.00322266 0 0.00322266 0.00966797 0.00966797 -0.00322266 -0.00322266 -0.0128906 -0.0225586 -0.0257812 -0.0257812 -0.0257812 -0.0225586 -0.0257812 -0.0257812 -0.0225586 -0.0128906 -0.00644531 -0.00644531 -0.00322266 0 0.00322266 0 0 0.00966797 0.00322266 -0.00644531 -0.0128906 -0.0225586 -0.0257812 -0.0128906 -0.0257812 -0.0257812 -0.0257812 -0.0418945 -0.0257812 -0.0225586 -0.0128906 -0.00322266 0.00322266 0.00966797 0.00966797 0.00966797 0.00322266 0 0 -0.0128906 -0.0128906 -0.0257812 -0.0257812 -0.0257812 -0.0257812 -0.0322266 -0.0418945 -0.0322266 -0.0257812 -0.0257812 -0.0128906 -0.00644531 -0.00322266 -0.00322266 0 0.00966797 0.00966797 0.00966797 0 -0.00322266 -0.0128906 -0.0128906 -0.0257812 -0.0257812 -0.0257812 -0.0225586 -0.0257812 -0.0257812 -0.0257812 -0.0128906 -0.00644531 -0.00322266 0 0 0 0.00966797 0.0193359 0.00966797 0.00322266 -0.00644531 -0.0225586 -0.0257812 -0.0257812 -0.0128906 -0.0257812 -0.0257812 -0.0257812 -0.0257812 -0.0257812 -0.0128906 -0.00322266 0 0.00322266 0.00322266 0.00966797 0.00966797 0.00966797 0.00966797 0 -0.00322266 -0.00322266 -0.0128906 -0.0225586 -0.0225586 -0.0128906 -0.0257812 -0.0257812 -0.0418945 -0.0257812 -0.0257812 -0.0128906 -0.00644531 -0.00644531 -0.00322266 -0.00322266 0 0.00322266 0.00966797 0.00322266 -0.00322266 -0.00644531 -0.0225586 -0.0257812 -0.0257812 -0.0257812 -0.0225586 -0.0257812 -0.0257812 -0.0257812 -0.0128906 -0.0128906 -0.00644531 -0.00322266 0 0.00322266 0 0.00322266 0.00966797 0.00966797 0 -0.00644531 -0.0128906 -0.0128906 -0.0225586 -0.0257812 -0.0225586 -0.0257812 -0.0257812 -0.0257812 -0.0257812 -0.0128906 -0.0128906 -0.00644531 -0.00322266 0.00322266 0 0.00966797 0.00966797 0 -0.00322266 -0.0128906 -0.0128906 -0.0225586 -0.0257812 -0.0257812 -0.0257812 -0.0257812 -0.0257812 -0.0257812 -0.0225586 -0.00644531 -0.00644531 0 0.00322266 0.00966797 0.00966797 0.00966797 0.00966797 0.00322266 0 0 -0.00644531 -0.0128906 -0.0225586 -0.0257812 -0.0257812 -0.0257812 -0.0257812 -0.0257812 -0.0257812 -0.0128906 -0.00322266 -0.00322266 0 0.00966797 0.00966797 0.00966797 0.00966797 0 -0.00322266 -0.0128906 -0.0225586 -0.0257812 -0.0257812 -0.0257812 -0.0257812 -0.0257812 -0.0418945 -0.0257812 -0.0257812 -0.0128906 0 0.00322266 0.00322266 0.00966797 0.00322266 0.00966797 0.00966797 0.00322266 0 -0.00322266 -0.00644531 -0.0128906 -0.0257812 -0.0257812 -0.0418945 -0.0418945 -0.0418945 -0.0257812 -0.0257812 -0.0128906 -0.0128906 -0.00322266 0 0.00322266 0.00322266 0.00966797 0.00966797 0 -0.00322266 -0.0128906 -0.0225586 -0.0257812 -0.0257812 -0.0257812 -0.0257812 -0.0257812 -0.0257812 -0.0257812 -0.0257812 -0.0128906 -0.0128906 -0.00644531 -0.00644531 -0.00322266 -0.00644531 -0.00322266 0.00966797 0.00322266 -0.00644531 -0.0257812 -0.0257812 -0.0257812 -0.0257812 -0.0418945 -0.0418945 -0.0483398 -0.0418945 -0.0257812 -0.0257812 -0.0128906 0 0.00322266 0.00966797 0.00322266 0.00966797 0.00966797 0.00322266 0 -0.00322266 -0.0128906 -0.0225586 -0.0257812 -0.0257812 -0.0257812 -0.0257812 -0.0257812 -0.0322266 -0.0257812 -0.0257812 -0.0128906 -0.00322266 0 0 0.00322266 0.00966797 0.00966797 0.00966797 0 0 -0.0128906 -0.0257812 -0.0257812 -0.0257812 -0.0257812 -0.0257812 -0.0257812 -0.0257812 -0.0257812 -0.0225586 -0.0128906 -0.00322266 0 0.00322266 0.00966797 0.00966797 0.0193359 0.0193359 0.00966797 0 -0.00644531 -0.0128906 -0.0225586 -0.0257812 -0.0257812 -0.0257812 -0.0257812 -0.0257812 -0.0257812 -0.0128906 -0.00322266 -0.00644531 0 0.00966797 0.00966797 0.00966797 0.0225586 0.0225586 0.0193359 0.00966797 -0.00322266 -0.00644531 -0.0128906 -0.0257812 -0.0257812 -0.0257812 -0.0257812 -0.0257812 -0.0257812 -0.0225586 -0.00322266 0.00966797 0.0193359 0.0225586 0.0225586 0.0193359 0.0225586 0.0225586 0.00966797 0.00966797 -0.00322266 -0.00322266 -0.00644531 -0.0128906 -0.0257812 -0.0257812 -0.0257812 -0.0257812 -0.0225586 -0.0128906 -0.00644531 -0.00322266 -0.00644531 -0.00644531 0 0 0.00966797 0.00966797 0 -0.00644531 -0.0128906 -0.0257812 -0.0257812 -0.0257812 -0.0418945 -0.0418945 -0.0418945 -0.0322266 -0.0257812 -0.0225586 -0.00322266 0 0.00322266 0.00966797 0.00966797 0.0193359 0.0225586 0.00966797 0 -0.00322266 -0.0128906 -0.0225586 -0.0257812 -0.0257812 -0.0257812 -0.0257812 -0.0257812 -0.0257812 -0.0257812 -0.0128906 -0.00322266 0 -0.00322266 -0.00322266 0 -0.00322266 0.00322266 0.00322266 0 -0.00644531 -0.0128906 -0.0257812 -0.0257812 -0.0257812 -0.0257812 -0.0257812 -0.0257812 -0.0257812 -0.0257812 -0.0128906 -0.00644531 0 -0.00322266 0 0.00966797 0.00966797 0.00966797 0.00966797 0.00322266 -0.00322266 -0.0128906 -0.0128906 -0.0257812 -0.0257812 -0.0257812 -0.0257812 -0.0257812 -0.0418945 -0.0257812 -0.0257812 -0.0257812 -0.0128906 -0.0128906 -0.00322266 0.00966797 0.00966797 0.0193359 0.0193359 0.00966797 0 -0.00322266 -0.0225586 -0.0257812 -0.0257812 -0.0322266 -0.0257812 -0.0418945 -0.0418945 -0.0257812 -0.0128906 -0.00322266 0.00322266 0.00322266 0.00322266 0.00322266 0.00322266 0.00966797 0.0225586 0.00322266 -0.00322266 -0.0225586 -0.0257812 -0.0257812 -0.0257812 -0.0418945 -0.0418945 -0.0418945 -0.0483398 -0.0418945 -0.0257812 -0.0257812 -0.0128906 -0.00322266 0 0.00322266 0.00322266 0.00966797 0.00322266 -0.00322266 -0.00644531 -0.0225586 -0.0225586 -0.0257812 -0.0257812 -0.0257812 -0.0257812 -0.0322266 -0.0418945 -0.0322266 -0.0257812 -0.0128906 -0.00322266 0 0.00322266 0.00966797 0 0.00322266 0 -0.00644531 -0.00644531 -0.0225586 -0.0257812 -0.0257812 -0.0257812 -0.0257812 -0.0257812 -0.0322266 -0.0322266 -0.0257812 -0.0257812 -0.0128906 -0.00322266 0 0.00322266 0.00966797 0.00966797 0.00966797 0.00966797 0.00322266 -0.00322266 -0.0128906 -0.0225586 -0.0257812 -0.0418945 -0.0257812 -0.0322266 -0.0418945 -0.0257812 -0.0257812 -0.0225586 -0.00644531 -0.00322266 0 -0.00322266 0 0 0.00966797 0.00966797 0.00322266 -0.00322266 -0.0128906 -0.0128906 -0.0257812 -0.0257812 -0.0257812 -0.0257812 -0.0257812 -0.0257812 -0.0257812 -0.0225586 -0.0128906 -0.00644531 -0.00322266 0 0.00966797 0 0.00966797 0.0193359 0.00322266 0 -0.0128906 -0.0225586 -0.0257812 -0.0257812 -0.0322266 -0.0257812 -0.0257812 -0.0418945 -0.0257812 -0.0128906 -0.0128906 -0.00322266 0 0 0.00322266 0 0.00966797 0.00966797 0 -0.00322266 -0.0128906 -0.0128906 -0.0128906 -0.0257812 -0.0257812 -0.0257812 -0.0257812 -0.0418945 -0.0322266 -0.0257812 -0.0128906 -0.00644531 -0.00644531 -0.00644531 -0.00322266 -0.00322266 0.00966797 0.00966797 0.00322266 -0.00644531 -0.0225586 -0.0257812 -0.0257812 -0.0257812 -0.0257812 -0.0257812 -0.0257812 -0.0418945 -0.0257812 -0.0128906 0 0 0 0.00322266 0.00966797 0.00966797 0.00966797 0.0193359 -0.00322266 -0.0128906 -0.0225586 -0.0257812 -0.0257812 -0.0322266 -0.0418945 -0.0322266 -0.0257812 -0.0322266 -0.0257812 -0.0128906 -0.00322266 0 0.00322266 0.00966797 0.00322266 0.00966797 0.00966797 0.00966797 -0.00322266 -0.0128906 -0.0257812 -0.0225586 -0.0257812 -0.0257812 -0.0257812 -0.0257812 -0.0257812 -0.0257812 -0.0225586 -0.00644531 -0.00322266 0 0.00966797 0.00966797 0.0193359 0.00966797 0.00966797 0 -0.0128906 -0.0257812 -0.0257812 -0.0257812 -0.0257812 -0.0257812 -0.0257812 -0.0257812 -0.0418945 -0.0418945 -0.0257812 -0.0128906 -0.00644531 -0.00644531 -0.00322266 -0.00322266 0 0.00322266 0.00322266 0.00322266 0 -0.00322266 -0.0128906 -0.0128906 -0.0257812 -0.0257812 -0.0257812 -0.0257812 -0.0257812 -0.0257812 -0.0128906 -0.00644531 -0.00644531 -0.00322266 0 0.00322266 0.00966797 0.00322266 0.00966797 0.00322266 -0.00322266 -0.00644531 -0.0128906 -0.0225586 -0.0257812 -0.0257812 -0.0257812 -0.0257812 -0.0257812 -0.0257812 -0.0257812 -0.0225586 -0.00644531 -0.00322266 0 0.00322266 0.00966797 0.00966797 0.00966797 0.00322266 0 -0.00644531 -0.0128906 -0.0128906 -0.0257812 -0.0257812 -0.0257812 -0.0257812 -0.0257812 -0.0418945 -0.0322266 -0.0257812 -0.0225586 -0.00644531 0 0.00322266 0.0193359 0.0128906 0.00966797 0.00322266 -0.00322266 -0.0225586 -0.0257812 -0.0257812 -0.0257812 -0.0257812 -0.0257812 -0.0257812 -0.0257812 -0.0257812 -0.0225586 -0.0128906 0 0.00966797 0.00966797 0.00966797 0.00966797 0.00966797 0.00966797 0.00322266 -0.00322266 -0.0225586 -0.0257812 -0.0257812 -0.0257812 -0.0257812 -0.0257812 -0.0257812 -0.0418945 -0.0418945 -0.0225586 -0.00644531 -0.00322266 0 0 0.00322266 0.00322266 0.00966797 0.0225586 0.0193359 0.00966797 -0.00322266 -0.0128906 -0.0225586 -0.0257812 -0.0257812 -0.0257812 -0.0257812 -0.0322266 -0.0257812 -0.0257812 -0.0128906 -0.00644531 0 0.00966797 0.00322266 0 0 0.00966797 0.00966797 0 -0.00644531 -0.0257812 -0.0257812 -0.0257812 -0.0257812 -0.0257812 -0.0257812 -0.0257812 -0.0257812 -0.0257812 -0.0128906 -0.00644531 0 0.00966797 0.00966797 0.00966797 0.00322266 0.00322266 0.00322266 0 -0.00644531 -0.00644531 -0.0128906 -0.0257812 -0.0257812 -0.0257812 -0.0257812 -0.0257812 -0.0257812 -0.0225586 -0.00644531 0 0 0.00966797 0.00966797 0.00966797 0.00966797 0.00966797 0.00322266 -0.00322266 -0.00644531 -0.0128906 -0.0225586 -0.0257812 -0.0257812 -0.0257812 -0.0257812 -0.0386719 -0.0418945 -0.0257812 -0.0128906 0.00322266 0.00322266 0 0 0 0.00322266 0.00966797 0 0 -0.00322266 -0.0128906 -0.0257812 -0.0257812 -0.0257812 -0.0257812 -0.0257812 -0.0257812 -0.0257812 -0.0225586 -0.0128906 -0.0128906 -0.00322266 -0.00322266 -0.00322266 0 0.00322266 0.00966797 0.00322266 -0.00322266 -0.00644531 -0.0128906 -0.0225586 -0.0257812 -0.0257812 -0.0257812 -0.0257812 -0.0257812 -0.0257812 -0.0257812 -0.0128906 -0.00644531 0 0.00966797 0.00966797 0.00966797 0.00966797 0.0225586 0.0193359 0.00322266 -0.00322266 -0.00644531 -0.0128906 -0.0257812 -0.0257812 -0.0257812 -0.0257812 -0.0257812 -0.0257812 -0.0257812 -0.0225586 -0.00644531 0 0.00322266 0.00966797 0.00322266 0.00966797 0.0225586 0.00966797 0.00322266 0 -0.00644531 -0.0128906 -0.0257812 -0.0257812 -0.0257812 -0.0257812 -0.0257812 -0.0322266 -0.0257812 -0.00644531 0.00322266 0.00322266 0.00322266 0.00322266 0.00966797 0.0193359 0.0225586 0.0225586 0.00966797 0 -0.00322266 -0.0128906 -0.0257812 -0.0257812 -0.0257812 -0.0257812 -0.0257812 -0.0257812 -0.0225586 -0.0128906 -0.00644531 -0.00322266 0 0.00966797 0.0193359 0.00966797 0.00966797 0.00966797 0 -0.00322266 -0.00322266 -0.0128906 -0.0257812 -0.0257812 -0.0257812 -0.0257812 -0.0257812 -0.0257812 -0.0225586 -0.0128906 0 0.00966797 0.00966797 0.00966797 0.00966797 0.00966797 0.00966797 0.00966797 0.00322266 0 -0.00644531 -0.0128906 -0.00644531 -0.0128906 -0.0257812 -0.0257812 -0.0257812 -0.0257812 -0.0128906 -0.0128906 -0.00322266 0 0.00322266 0 0.00322266 0.00966797 0.00966797 0.00966797 0 -0.00322266 -0.0128906 -0.0257812 -0.0257812 -0.0257812 -0.0257812 -0.0257812 -0.0257812 -0.0225586 -0.0128906 -0.0128906 0 0.00966797 0.00966797 0.00966797 0.00966797 0.00966797 0.0193359 0.00966797 0.00322266 0 -0.0128906 -0.0257812 -0.0128906 -0.0225586 -0.0257812 -0.0257812 -0.0257812 -0.0257812 -0.0225586 -0.00644531 0 0.00322266 0.00966797 0.00966797 0.00322266 0.00322266 0.00966797 0.00966797 0.00966797 0 -0.0128906 -0.0225586 -0.0225586 -0.0257812 -0.0257812 -0.0225586 -0.0257812 -0.0257812 -0.0225586 -0.00644531 -0.00322266 0 0.00322266 0.00966797 0.0193359 0.0225586 0.0225586 0.0225586 0.00966797 0 -0.0128906 -0.0128906 -0.0225586 -0.0128906 -0.00644531 -0.00644531 -0.0225586 -0.0225586 -0.0128906 -0.00322266 -0.00322266 -0.00322266 0.00322266 0.00966797 0.00966797 0.00322266 0.00966797 0.00966797 0 0 -0.0128906 -0.0225586 -0.0257812 -0.0257812 -0.0257812 -0.0257812 -0.0257812 -0.0257812 -0.0128906 -0.00644531 0 0.00322266 0.00966797 0.0193359 0.00966797 0.0193359 0.0225586 0.00966797 0.00322266 -0.00322266 -0.00644531 -0.0128906 -0.0225586 -0.0257812 -0.0257812 -0.0257812 -0.0257812 -0.0257812 -0.00644531 -0.00322266 0 0.00966797 0.00322266 0.00966797 0.00966797 0.00966797 0.00966797 0.00966797 0 -0.00322266 -0.0128906 -0.0128906 -0.0225586 -0.0257812 -0.0257812 -0.0257812 -0.0322266 -0.0257812 -0.0257812 -0.0128906 0 0.00322266 0.00322266 0.00966797 0.00966797 0.00322266 0.00966797 0.00322266 0 -0.00322266 -0.0128906 -0.0128906 -0.0257812 -0.0257812 -0.0257812 -0.0257812 -0.0257812 -0.0418945 -0.0257812 -0.0225586 -0.00644531 0 -0.00644531 -0.00322266 0.00322266 0.00966797 0.0225586 0.00966797 0 0 -0.00644531 -0.0128906 -0.0257812 -0.0257812 -0.0257812 -0.0322266 -0.0322266 -0.0257812 -0.0257812 -0.0128906 -0.00322266 -0.00322266 -0.00322266 0.00322266 0.00322266 0.00322266 0.00966797 0.00966797 0 -0.00644531 -0.0225586 -0.0257812 -0.0257812 -0.0257812 -0.0257812 -0.0257812 -0.0257812 -0.0418945 -0.0225586 -0.0128906 -0.00644531 -0.00322266 0 0.00322266 0.00966797 0.00966797 0.00966797 0.00966797 -0.00322266 -0.0225586 -0.0257812 -0.0257812 -0.0257812 -0.0257812 -0.0257812 -0.0257812 -0.0418945 -0.0418945 -0.0225586 -0.00644531 -0.00322266 -0.00322266 0.00322266 0.0193359 0.0225586 0.0193359 0.00966797 0.00322266 -0.00322266 -0.0128906 -0.0225586 -0.0257812 -0.0257812 -0.0322266 -0.0257812 -0.0418945 -0.0418945 -0.0418945 -0.0257812 -0.0225586 -0.00644531 0 0.00322266 0.0193359 0.00966797 0.00966797 0.0193359 0.00966797 0 0 -0.00322266 -0.0128906 -0.0257812 -0.0257812 -0.0257812 -0.0386719 -0.0418945 -0.0257812 -0.0257812 -0.0128906 -0.00322266 0 0.00322266 0.00966797 0.00966797 0.00966797 0.00966797 0.00322266 0 -0.00322266 -0.00644531 -0.00644531 -0.0225586 -0.0257812 -0.0257812 -0.0257812 -0.0257812 -0.0257812 -0.0225586 -0.0128906 -0.00322266 0.00322266 0.00966797 0.00966797 0.00966797 0.00966797 0.0193359 0.00966797 0.00322266 -0.00322266 -0.0128906 -0.0128906 -0.0225586 -0.0257812 -0.0225586 -0.0257812 -0.0257812 -0.0257812 -0.0128906 -0.00644531 -0.00322266 -0.00322266 0 0 0 0.00322266 0.00966797 0 -0.00644531 -0.0225586 -0.0257812 -0.0257812 -0.0257812 -0.0257812 -0.0322266 -0.0418945 -0.0386719 -0.0257812 -0.0128906 -0.00644531 0.00966797 0.00966797 0.00966797 0.00966797 0.00322266 0.00322266 0.0193359 0.00966797 0 -0.00322266 -0.0128906 -0.0128906 -0.0257812 -0.0257812 -0.0257812 -0.0257812 -0.0257812 -0.0257812 -0.0257812 -0.0128906 -0.00322266 0 0.00322266 0.00322266 0.00966797 0 0.00322266 0.00322266 0 -0.00322266 -0.0128906 -0.00644531 -0.0128906 -0.0257812 -0.0225586 -0.0257812 -0.0257812 -0.0257812 -0.0128906 -0.0128906 -0.00644531 -0.0128906 -0.00644531 0.00322266 0.00322266 0.0225586 0.0225586 0.0225586 0.00322266 -0.00322266 -0.0128906 -0.0225586 -0.0257812 -0.0257812 -0.0257812 -0.0257812 -0.0257812 -0.0257812 -0.0257812 -0.0225586 -0.0128906 -0.00322266 0 0 0.00322266 0.00322266 0.00966797 0 -0.00322266 -0.0128906 -0.0225586 -0.0128906 -0.0257812 -0.0257812 -0.0257812 -0.0257812 -0.0257812 -0.0257812 -0.0128906 -0.00322266 -0.00322266 0 0.00966797 0.0193359 0.0193359 0.00966797 0.0225586 0.0193359 0.00966797 -0.00322266 -0.00322266 -0.0128906 -0.0257812 -0.0322266 -0.0257812 -0.0257812 -0.0257812 -0.0257812 -0.0257812 -0.0128906 -0.00644531 -0.00644531 0 0.0193359 0.0225586 0.0193359 0.0193359 0.00966797 0.00322266 -0.00644531 -0.0225586 -0.0225586 -0.0257812 -0.0257812 -0.0257812 -0.0257812 -0.0322266 -0.0257812 -0.00644531 0 0.00966797 0.00966797 0.00966797 0.0193359 0.00966797 0.00966797 0.0225586 0.00966797 0.00966797 0 -0.00322266 -0.0225586 -0.0257812 -0.0257812 -0.0257812 -0.0322266 -0.0257812 -0.0257812 -0.0128906 -0.00644531 -0.00322266 0.00322266 0.00322266 0.00966797 0.00966797 0.00966797 0.00966797 0.00322266 0 -0.00644531 -0.0128906 -0.0128906 -0.0257812 -0.0257812 -0.0257812 -0.0225586 -0.0257812 -0.0225586 -0.0128906 -0.0128906 -0.00322266 0 0 0 0.00322266 0.00322266 0.00322266 0 0 -0.00322266 -0.0128906 -0.0225586 -0.0257812 -0.0257812 -0.0257812 -0.0257812 -0.0257812 -0.0257812 -0.0225586 -0.0128906 -0.00644531 0 0.00322266 0.00966797 0.00966797 0.00966797 0.00966797 -0.00322266 -0.0128906 -0.0128906 -0.0225586 -0.0128906 -0.0128906 -0.0257812 -0.0257812 -0.0418945 -0.0418945 -0.0257812 -0.0225586 -0.0128906 -0.00644531 0 0 0.00322266 0.00322266 0.00322266 0.00322266 0 -0.00644531 -0.00644531 -0.0128906 -0.0257812 -0.0257812 -0.0257812 -0.0257812 -0.0257812 -0.0257812 -0.0257812 -0.0225586 -0.00644531 -0.00322266 0 0 0.00322266 0.00322266 0.00322266 0.00966797 0 -0.0128906 -0.0128906 -0.0225586 -0.0257812 -0.0257812 -0.0418945 -0.0322266 -0.0418945 -0.0418945 -0.0257812 -0.0128906 -0.0128906 -0.00322266 -0.00322266 -0.00322266 0 0.00322266 0.00966797 0.0225586 0.00966797 0 -0.0128906 -0.0225586 -0.0257812 -0.0257812 -0.0257812 -0.0257812 -0.0257812 -0.0418945 -0.0257812 -0.0257812 -0.0225586 -0.00644531 -0.00322266 0 0.00322266 0.00322266 0.00966797 0.00966797 0.00966797 0.00322266 0.00322266 -0.00644531 -0.0128906 -0.0225586 -0.0257812 -0.0257812 -0.0257812 -0.0418945 -0.0483398 -0.0418945 -0.0257812 -0.0128906 -0.00644531 -0.00322266 0 0.00322266 0.00966797 0.00322266 0 -0.00644531 -0.0225586 -0.0257812 -0.0257812 -0.0257812 -0.0257812 -0.0257812 -0.0257812 -0.0322266 -0.0257812 -0.0128906 -0.00644531 0 0 0.00322266 0.00966797 0.00966797 0.0193359 0.00966797 0.00322266 -0.00322266 -0.0128906 -0.0225586 -0.0257812 -0.0225586 -0.0257812 -0.0257812 -0.0257812 -0.0322266 -0.0257812 -0.0257812 -0.0128906 -0.00322266 -0.00322266 -0.00644531 0 0 0.00966797 0.0225586 0.0193359 0 -0.00322266 -0.00644531 -0.0128906 -0.0257812 -0.0257812 -0.0257812 -0.0257812 -0.0257812 -0.0257812 -0.0257812 -0.0128906 -0.00322266 0 0 0.00322266 0.00322266 0.00966797 0.00322266 -0.00322266 -0.00644531 -0.0128906 -0.0225586 -0.0225586 -0.0128906 -0.0257812 -0.0257812 -0.0257812 -0.0257812 -0.0257812 -0.0257812 -0.0128906 -0.00644531 -0.00322266 0 0 0 0.00322266 0.00966797 0.00966797 0 0 0 -0.00322266 -0.0128906 -0.0257812 -0.0225586 -0.0257812 -0.0257812 -0.0257812 -0.0128906 -0.00322266 0.00322266 0.00966797 0.00966797 0.00322266 0 0.00966797 0.0225586 0.0193359 0 -0.00644531 -0.0128906 -0.0128906 -0.0257812 -0.0257812 -0.0322266 -0.0257812 -0.0257812 -0.0225586 -0.0128906 -0.00644531 -0.00322266 0.00322266 0.00966797 0.00966797 0.00966797 0.00966797 0.0225586 0.0193359 0.00322266 0 -0.0128906 -0.0257812 -0.0225586 -0.0257812 -0.0257812 -0.0257812 -0.0257812 -0.0257812 -0.0128906 -0.00322266 -0.00322266 0 0 0.00322266 0.00966797 0.00966797 0.0193359 0.00966797 -0.00322266 -0.00644531 -0.0128906 -0.0128906 -0.0257812 -0.0257812 -0.0322266 -0.0257812 -0.0257812 -0.0257812 -0.0128906 -0.00322266 0.00322266 0.00966797 0.00966797 0.00966797 0.00966797 0.00966797 0.0193359 0.00966797 0 -0.00322266 -0.00322266 -0.00644531 -0.0128906 -0.0225586 -0.0257812 -0.0257812 -0.0257812 -0.0257812 -0.0257812 -0.0128906 -0.00322266 0 0.00322266 0 0 0.00966797 0.00966797 0.00322266 -0.00644531 -0.0225586 -0.0257812 -0.0257812 -0.0257812 -0.0257812 -0.0257812 -0.0257812 -0.0322266 -0.0257812 -0.0128906 -0.00322266 0.00322266 0.00966797 0.00966797 0.00966797 0.00966797 0.0193359 0.0193359 0.00966797 0 -0.00644531 -0.0257812 -0.0322266 -0.0418945 -0.0418945 -0.0418945 -0.0418945 -0.0322266 -0.0257812 -0.0128906 0 0 0.00966797 0.00966797 0.00966797 0.00966797 0.0225586 0.0225586 0.00966797 0 -0.00644531 -0.0225586 -0.0257812 -0.0257812 -0.0257812 -0.0257812 -0.0257812 -0.0418945 -0.0386719 -0.0257812 -0.0128906 -0.00322266 0.00322266 0.00966797 0.00966797 0.00322266 0.00966797 0.00966797 0.00322266 -0.00322266 -0.00644531 -0.0128906 -0.0128906 -0.0257812 -0.0257812 -0.0322266 -0.0418945 -0.0322266 -0.0257812 -0.0128906 -0.00644531 0 0.00966797 0.00966797 0.00966797 0.00966797 0.00966797 0.00966797 0.00322266 -0.00322266 -0.0128906 -0.0257812 -0.0257812 -0.0257812 -0.0418945 -0.0418945 -0.0483398 -0.0483398 -0.0418945 -0.0322266 -0.0257812 -0.00644531 -0.00322266 0 0 0 0 0.00322266 0 -0.0128906 -0.0225586 -0.0257812 -0.0257812 -0.0257812 -0.0257812 -0.0257812 -0.0257812 -0.0322266 -0.0257812 -0.0225586 -0.00644531 -0.00322266 0 -0.00322266 0 0 0.00966797 0.00322266 -0.00322266 -0.00644531 -0.0128906 -0.0257812 -0.0257812 -0.0257812 -0.0257812 -0.0386719 -0.0322266 -0.0257812 -0.0257812 -0.0225586 -0.0225586 -0.0128906 -0.00322266 0 0.00322266 0.00322266 0.00966797 0.00322266 0 -0.00644531 -0.0128906 -0.0128906 -0.0257812 -0.0257812 -0.0257812 -0.0257812 -0.0257812 -0.0322266 -0.0257812 -0.0128906 -0.0128906 -0.00644531 -0.00322266 0 0.00322266 0.00966797 0.00966797 0.00322266 0 -0.00644531 -0.0128906 -0.0225586 -0.0257812 -0.0257812 -0.0257812 -0.0257812 -0.0322266 -0.0257812 -0.0225586 -0.0128906 -0.00644531 -0.00322266 -0.00644531 -0.00322266 0 0.00322266 0.00322266 0.00966797 0 -0.00322266 -0.0128906 -0.0257812 -0.0257812 -0.0322266 -0.0418945 -0.0418945 -0.0418945 -0.0418945 -0.0418945 -0.0257812 -0.0257812 -0.0128906 -0.0128906 -0.00644531 0 0 0.00322266 0.00322266 -0.00322266 -0.00644531 -0.0128906 -0.0257812 -0.0257812 -0.0322266 -0.0418945 -0.0418945 -0.0418945 -0.0418945 -0.0257812 -0.0225586 -0.0128906 -0.00322266 0 0 0 0 0.00322266 0.00966797 0 -0.00644531 -0.0225586 -0.0257812 -0.0257812 -0.0418945 -0.0322266 -0.0418945 -0.0418945 -0.0418945 -0.0257812 -0.0257812 -0.0128906 -0.0128906 -0.00322266 -0.00322266 -0.00322266 -0.0128906 -0.0128906 -0.00644531 -0.00644531 -0.0128906 -0.0225586 -0.0257812 -0.0257812 -0.0257812 -0.0257812 -0.0322266 -0.0418945 -0.0418945 -0.0257812 -0.0257812 -0.0257812 -0.0128906 -0.00644531 -0.00322266 0 0 0 -0.00322266 0 -0.00322266 -0.0225586 -0.0257812 -0.0257812 -0.0386719 -0.0257812 -0.0322266 -0.0322266 -0.0322266 -0.0257812 -0.0128906 -0.0128906 -0.00644531 -0.00644531 0 0 0 0 0 -0.00322266 -0.00644531 -0.0225586 -0.0257812 -0.0257812 -0.0257812 -0.0322266 -0.0257812 -0.0418945 -0.0418945 -0.0418945 -0.0257812 -0.0257812 -0.0128906 -0.00322266 0.00322266 0.00322266 0 0 -0.00322266 -0.00644531 -0.0128906 -0.0128906 -0.0257812 -0.0257812 -0.0257812 -0.0418945 -0.0418945 -0.0418945 -0.0418945 -0.0257812 -0.0257812 -0.0128906 -0.0128906 -0.00644531 0 0.00966797 0.00966797 0.00966797 0.00966797 0.00966797 0 -0.00644531 -0.0225586 -0.0257812 -0.0257812 -0.0418945 -0.0418945 -0.0418945 -0.0483398 -0.0418945 -0.0257812 -0.0225586 -0.0128906 -0.00644531 0 0.00322266 0 0.00322266 0.00322266 0 -0.00322266 -0.0128906 -0.0128906 -0.0257812 -0.0257812 -0.0257812 -0.0257812 -0.0418945 -0.0418945 -0.0257812 -0.0257812 -0.00644531 -0.00322266 0 0.00322266 0.00966797 0.00966797 0.00966797 0.00966797 0.00322266 -0.00644531 -0.0128906 -0.0257812 -0.0257812 -0.0418945 -0.0418945 -0.0418945 -0.0418945 